# 
# File:    Galev2_E.dat
# Author:  P.Ballester, ESO-DMD, 2005
#
# Description:
#   Galaxy evolutionary synthesis model
#   Compilation from Bicker et al., 2004, Astron.Astrophys., 413, 37-48
#   Files available at URL: http://www.uni-sw.gwdg.de/~galev
#   Spectra computed for z=0.0, no attenuation
#   Valid from  9nm to 100 microns
#
#   lambda(A)  Fluxes
#!Units:  angstrom erg/cm2/s/A
## index=   1 Redshift=   0
#  RLAMB      FGALZ       
       90.9  8.516186E-04 
       93.5  1.045767E-03 
       96.1  1.267005E-03 
       97.7  1.417015E-03 
       99.6  1.609138E-03 
      102.0  1.873671E-03 
      103.8  2.088158E-03 
      105.6  2.316401E-03 
      107.7  2.599964E-03 
      110.4  2.991383E-03 
      114.0  3.558805E-03 
      117.8  4.211339E-03 
      121.3  4.857712E-03 
      124.8  5.542990E-03 
      127.1  6.013064E-03 
      128.4  6.285234E-03 
      130.5  6.732944E-03 
      132.4  7.147318E-03 
      133.9  7.479407E-03 
      136.6  8.087887E-03 
      139.8  8.824224E-03 
      143.3  9.643688E-03 
      147.2  1.056991E-02 
      151.0  1.147968E-02 
      155.2  1.248650E-02 
      158.8  1.334647E-02 
      162.0  1.410475E-02 
      166.0  1.504110E-02 
      170.3  1.602809E-02 
      173.4  1.672476E-02 
      176.8  1.747206E-02 
      180.2  1.819996E-02 
      181.7  1.851475E-02 
      186.1  1.941312E-02 
      191.0  2.036762E-02 
      193.9  2.090858E-02 
      198.4  2.171159E-02 
      201.8  2.228842E-02 
      205.0  2.280660E-02 
      210.5  2.364252E-02 
      216.2  2.443456E-02 
      219.8  2.489577E-02 
      223.0  2.528103E-02 
      226.8  2.570849E-02 
      230.0  2.604437E-02 
      234.0  2.646423E-02 
      240.0  2.706469E-02 
      246.5  2.768963E-02 
      252.4  2.830866E-02 
      256.8  2.843989E-02 
      260.0  2.884161E-02 
      264.0  2.979652E-02 
      268.5  3.016448E-02 
      273.5  3.040247E-02 
      278.5  3.004169E-02 
      284.0  3.081347E-02 
      290.0  3.105231E-02 
      296.0  3.061135E-02 
      301.0  2.964419E-02 
      308.0  2.989864E-02 
      318.0  3.005013E-02 
      328.0  2.981003E-02 
      338.0  2.924163E-02 
      348.0  2.865636E-02 
      357.0  2.878042E-02 
      366.0  2.932434E-02 
      375.0  2.876397E-02 
      385.0  2.745881E-02 
      395.0  2.786264E-02 
      405.0  2.790230E-02 
      414.0  2.728243E-02 
      422.0  2.641275E-02 
      430.0  2.569920E-02 
      441.0  2.551733E-02 
      451.0  2.491771E-02 
      460.0  2.389992E-02 
      470.0  2.328216E-02 
      480.0  2.297792E-02 
      490.0  2.185211E-02 
      500.0  2.186519E-02 
      506.0  2.101703E-02 
      512.0  2.203144E-02 
      520.0  2.131663E-02 
      530.0  2.045201E-02 
      540.0  1.917556E-02 
      550.0  1.847129E-02 
      560.0  1.875527E-02 
      570.0  1.850420E-02 
      580.0  1.788686E-02 
      590.0  1.743451E-02 
      600.0  1.653698E-02 
      610.0  1.580529E-02 
      620.0  1.599391E-02 
      630.0  1.531791E-02 
      640.0  1.517740E-02 
      650.0  1.462040E-02 
      658.0  1.407352E-02 
      665.0  1.410180E-02 
      675.0  1.378532E-02 
      685.0  1.307008E-02 
      695.0  1.301733E-02 
      705.0  1.223585E-02 
      716.0  1.231264E-02 
      726.0  1.201769E-02 
      735.0  1.172062E-02 
      745.0  1.133747E-02 
      755.0  1.099863E-02 
      765.0  1.047708E-02 
      775.0  1.042096E-02 
      785.0  9.950460E-03 
      795.0  9.833153E-03 
      805.0  9.658035E-03 
      815.0  9.425108E-03 
      825.0  9.214546E-03 
      835.0  8.616615E-03 
      845.0  8.725905E-03 
      855.0  8.463018E-03 
      865.0  8.330098E-03 
      875.0  8.141055E-03 
      885.0  7.939354E-03 
      895.0  7.755375E-03 
      905.0  7.527090E-03 
      915.0  7.174746E-03 
      925.0  9.982530E-03 
      935.0  1.327600E-02 
      945.0  1.841517E-02 
      955.0  2.218082E-02 
      965.0  2.527090E-02 
      975.0  1.164636E-02 
      985.0  2.480336E-02 
      995.0  2.352564E-02 
     1005.0  2.720183E-02 
     1015.0  2.548442E-02 
     1025.0  1.372371E-02 
     1035.0  2.073769E-02 
     1045.0  3.008135E-02 
     1055.0  3.010498E-02 
     1065.0  2.612033E-02 
     1075.0  2.840698E-02 
     1085.0  2.451895E-02 
     1095.0  2.823355E-02 
     1105.0  2.801328E-02 
     1115.0  2.743814E-02 
     1125.0  2.541057E-02 
     1135.0  2.851500E-02 
     1145.0  2.673767E-02 
     1155.0  2.752000E-02 
     1165.0  2.809261E-02 
     1175.0  2.307708E-02 
     1185.0  2.574393E-02 
     1195.0  1.735518E-02 
     1205.0  1.514955E-02 
     1215.0  9.252523E-03 
     1225.0  1.551708E-02 
     1235.0  2.445355E-02 
     1245.0  2.779175E-02 
     1255.0  2.697439E-02 
     1265.0  2.287665E-02 
     1275.0  2.865763E-02 
     1285.0  2.971719E-02 
     1295.0  2.539665E-02 
     1305.0  2.407884E-02 
     1315.0  2.805928E-02 
     1325.0  2.735374E-02 
     1335.0  2.423455E-02 
     1345.0  2.819051E-02 
     1355.0  2.727652E-02 
     1365.0  2.459406E-02 
     1375.0  2.578993E-02 
     1385.0  2.607391E-02 
     1395.0  2.405352E-02 
     1405.0  2.410753E-02 
     1415.0  2.410500E-02 
     1425.0  2.427885E-02 
     1435.0  2.380161E-02 
     1442.0  2.477846E-02 
     1447.0  2.523588E-02 
     1455.0  2.453035E-02 
     1465.0  2.314249E-02 
     1475.0  2.258887E-02 
     1485.0  2.298636E-02 
     1495.0  2.310662E-02 
     1505.0  2.234075E-02 
     1512.0  2.073304E-02 
     1517.0  2.176687E-02 
     1525.0  2.080140E-02 
     1535.0  1.891182E-02 
     1545.0  2.002540E-02 
     1555.0  1.890338E-02 
     1565.0  1.887469E-02 
     1575.0  1.940806E-02 
     1585.0  2.053219E-02 
     1595.0  2.103264E-02 
     1605.0  2.005452E-02 
     1615.0  2.032458E-02 
     1625.0  1.940384E-02 
     1635.0  2.001738E-02 
     1645.0  2.110438E-02 
     1655.0  1.880127E-02 
     1665.0  2.169767E-02 
     1672.0  1.860463E-02 
     1677.0  2.433582E-02 
     1685.0  2.560974E-02 
     1695.0  2.419657E-02 
     1705.0  2.491560E-02 
     1715.0  2.633680E-02 
     1725.0  2.727610E-02 
     1735.0  3.014718E-02 
     1745.0  3.019360E-02 
     1755.0  3.368750E-02 
     1765.0  2.850488E-02 
     1775.0  3.193633E-02 
     1785.0  3.422425E-02 
     1795.0  3.851863E-02 
     1805.0  4.261469E-02 
     1815.0  4.301134E-02 
     1825.0  4.083313E-02 
     1835.0  4.238683E-02 
     1845.0  3.399765E-02 
     1855.0  3.932755E-02 
     1865.0  4.541657E-02 
     1875.0  4.573304E-02 
     1885.0  4.605374E-02 
     1895.0  4.952233E-02 
     1905.0  4.828596E-02 
     1915.0  5.197819E-02 
     1925.0  5.102876E-02 
     1935.0  4.189650E-02 
     1945.0  5.680130E-02 
     1955.0  5.796172E-02 
     1967.0  6.554451E-02 
     1976.0  6.291142E-02 
     1984.0  6.365408E-02 
     1995.0  6.427438E-02 
     2005.0  6.053995E-02 
     2015.0  6.424062E-02 
     2025.0  5.512608E-02 
     2035.0  6.839702E-02 
     2045.0  7.553252E-02 
     2055.0  7.433835E-02 
     2065.0  7.240995E-02 
     2074.0  8.355838E-02 
     2078.0  9.996033E-02 
     2085.0  1.060240E-01 
     2095.0  1.000827E-01 
     2105.0  9.561404E-02 
     2115.0  1.069861E-01 
     2125.0  9.848344E-02 
     2135.0  9.260962E-02 
     2145.0  1.118303E-01 
     2155.0  1.095053E-01 
     2165.0  9.733146E-02 
     2175.0  9.863535E-02 
     2185.0  1.172737E-01 
     2195.0  1.245400E-01 
     2205.0  1.194595E-01 
     2215.0  1.013149E-01 
     2225.0  1.140710E-01 
     2235.0  1.422670E-01 
     2245.0  1.329794E-01 
     2255.0  1.097416E-01 
     2265.0  1.027116E-01 
     2275.0  1.102226E-01 
     2285.0  1.354058E-01 
     2295.0  1.168138E-01 
     2305.0  1.370979E-01 
     2315.0  1.276289E-01 
     2325.0  1.089187E-01 
     2335.0  1.018845E-01 
     2345.0  7.628785E-02 
     2355.0  1.257849E-01 
     2365.0  8.369341E-02 
     2375.0  1.056105E-01 
     2385.0  6.744337E-02 
     2395.0  8.425041E-02 
     2405.0  8.351618E-02 
     2415.0  9.280373E-02 
     2425.0  1.424991E-01 
     2435.0  1.391317E-01 
     2445.0  1.597450E-01 
     2455.0  1.642727E-01 
     2465.0  1.539724E-01 
     2475.0  1.345745E-01 
     2485.0  9.685463E-02 
     2495.0  1.100412E-01 
     2505.0  1.551624E-01 
     2513.0  9.380380E-02 
     2518.0  7.168416E-02 
     2525.0  7.564223E-02 
     2535.0  1.079018E-01 
     2545.0  1.138600E-01 
     2555.0  1.683320E-01 
     2565.0  1.408787E-01 
     2575.0  1.717500E-01 
     2585.0  1.587702E-01 
     2595.0  1.473264E-01 
     2605.0  1.301143E-01 
     2615.0  1.170627E-01 
     2625.0  1.542931E-01 
     2635.0  2.223061E-01 
     2645.0  2.910323E-01 
     2655.0  3.672062E-01 
     2665.0  2.685498E-01 
     2675.0  2.993409E-01 
     2685.0  3.343854E-01 
     2695.0  2.558443E-01 
     2705.0  2.970833E-01 
     2715.0  2.279310E-01 
     2725.0  1.997983E-01 
     2735.0  2.395900E-01 
     2745.0  1.531960E-01 
     2755.0  1.973382E-01 
     2765.0  2.490421E-01 
     2775.0  2.636169E-01 
     2785.0  1.823625E-01 
     2795.0  7.451558E-02 
     2805.0  9.479964E-02 
     2815.0  2.488438E-01 
     2825.0  3.177176E-01 
     2835.0  2.988261E-01 
     2845.0  2.314165E-01 
     2855.0  1.464149E-01 
     2865.0  2.910112E-01 
     2875.0  3.624590E-01 
     2885.0  3.406095E-01 
     2895.0  3.937903E-01 
     2910.0  5.025233E-01 
     2930.0  4.532373E-01 
     2950.0  4.253451E-01 
     2970.0  4.358522E-01 
     2990.0  4.444182E-01 
     3010.0  4.464436E-01 
     3030.0  4.704959E-01 
     3050.0  4.948013E-01 
     3070.0  5.177986E-01 
     3090.0  5.018482E-01 
     3110.0  5.608395E-01 
     3130.0  5.298670E-01 
     3150.0  5.247189E-01 
     3170.0  5.723593E-01 
     3190.0  5.158998E-01 
     3210.0  5.633713E-01 
     3230.0  5.010043E-01 
     3250.0  6.533774E-01 
     3270.0  7.494598E-01 
     3290.0  7.391638E-01 
     3310.0  7.016085E-01 
     3330.0  7.129595E-01 
     3350.0  6.919032E-01 
     3370.0  5.407960E-01 
     3390.0  6.151048E-01 
     3410.0  6.315616E-01 
     3430.0  6.804678E-01 
     3450.0  6.937599E-01 
     3470.0  7.192468E-01 
     3490.0  7.874371E-01 
     3510.0  8.370607E-01 
     3530.0  7.707693E-01 
     3550.0  8.816207E-01 
     3570.0  6.652347E-01 
     3590.0  6.590740E-01 
     3610.0  7.830064E-01 
     3630.0  8.133038E-01 
     3640.0  8.468082E-01 
     3650.0  9.241552E-01 
     3670.0  9.689683E-01 
     3690.0  9.050821E-01 
     3710.0  9.582925E-01 
     3730.0  7.165040E-01 
     3750.0  8.034297E-01 
     3770.0  9.763528E-01 
     3790.0  1.011503E+00 
     3810.0  9.928096E-01 
     3830.0  6.631671E-01 
     3850.0  8.646575E-01 
     3870.0  8.466394E-01 
     3890.0  9.259696E-01 
     3910.0  1.089441E+00 
     3930.0  6.252742E-01 
     3950.0  1.000743E+00 
     3970.0  7.178121E-01 
     3990.0  1.330934E+00 
     4010.0  1.439464E+00 
     4030.0  1.417184E+00 
     4050.0  1.377055E+00 
     4070.0  1.318612E+00 
     4090.0  1.536686E+00 
     4110.0  1.435287E+00 
     4130.0  1.447144E+00 
     4150.0  1.421151E+00 
     4170.0  1.445414E+00 
     4190.0  1.403217E+00 
     4210.0  1.407985E+00 
     4230.0  1.348403E+00 
     4250.0  1.398786E+00 
     4270.0  1.330723E+00 
     4290.0  1.250000E+00 
     4310.0  1.088048E+00 
     4330.0  1.510566E+00 
     4350.0  1.479172E+00 
     4370.0  1.598715E+00 
     4390.0  1.462715E+00 
     4410.0  1.550949E+00 
     4430.0  1.676695E+00 
     4450.0  1.679143E+00 
     4470.0  1.769149E+00 
     4490.0  1.811135E+00 
     4510.0  1.995113E+00 
     4530.0  1.795480E+00 
     4550.0  1.867510E+00 
     4570.0  1.984142E+00 
     4590.0  1.899326E+00 
     4610.0  1.947347E+00 
     4630.0  1.923758E+00 
     4650.0  1.935785E+00 
     4670.0  2.003257E+00 
     4690.0  1.980134E+00 
     4710.0  1.933042E+00 
     4730.0  1.976927E+00 
     4750.0  2.015621E+00 
     4770.0  1.986168E+00 
     4790.0  1.990852E+00 
     4810.0  2.006296E+00 
     4830.0  2.039547E+00 
     4850.0  1.968276E+00 
     4870.0  1.813287E+00 
     4890.0  1.993890E+00 
     4910.0  1.997856E+00 
     4930.0  1.956377E+00 
     4950.0  2.018026E+00 
     4970.0  2.003131E+00 
     4990.0  1.887047E+00 
     5010.0  1.803961E+00 
     5030.0  1.900466E+00 
     5050.0  1.884515E+00 
     5070.0  1.944055E+00 
     5090.0  1.865527E+00 
     5110.0  1.895908E+00 
     5130.0  1.847762E+00 
     5150.0  1.784593E+00 
     5170.0  1.681759E+00 
     5190.0  1.739273E+00 
     5210.0  1.843036E+00 
     5230.0  1.967939E+00 
     5250.0  2.041657E+00 
     5270.0  1.843584E+00 
     5290.0  2.060941E+00 
     5310.0  2.156137E+00 
     5330.0  1.953971E+00 
     5350.0  2.096850E+00 
     5370.0  2.080098E+00 
     5390.0  2.049927E+00 
     5410.0  2.019250E+00 
     5430.0  2.038070E+00 
     5450.0  2.074486E+00 
     5470.0  2.057734E+00 
     5490.0  2.070477E+00 
     5510.0  2.049801E+00 
     5530.0  2.109214E+00 
     5550.0  2.133688E+00 
     5570.0  2.088453E+00 
     5590.0  2.047311E+00 
     5610.0  2.098285E+00 
     5630.0  2.107189E+00 
     5650.0  2.133266E+00 
     5670.0  2.087061E+00 
     5690.0  2.137022E+00 
     5710.0  2.073895E+00 
     5730.0  2.205718E+00 
     5750.0  2.153901E+00 
     5770.0  2.164323E+00 
     5790.0  2.105796E+00 
     5810.0  2.160947E+00 
     5830.0  2.200866E+00 
     5850.0  2.147402E+00 
     5870.0  2.143605E+00 
     5890.0  1.922282E+00 
     5910.0  2.109425E+00 
     5930.0  2.125080E+00 
     5950.0  2.126093E+00 
     5970.0  2.150736E+00 
     5990.0  2.129300E+00 
     6010.0  2.105374E+00 
     6030.0  2.141241E+00 
     6050.0  2.173396E+00 
     6070.0  2.162382E+00 
     6090.0  2.113729E+00 
     6110.0  2.117020E+00 
     6130.0  2.022499E+00 
     6150.0  2.069633E+00 
     6170.0  1.970977E+00 
     6190.0  2.066173E+00 
     6210.0  2.051489E+00 
     6230.0  2.000852E+00 
     6250.0  1.952537E+00 
     6270.0  2.024862E+00 
     6290.0  2.049126E+00 
     6310.0  2.012077E+00 
     6330.0  2.034652E+00 
     6350.0  2.049168E+00 
     6370.0  2.041615E+00 
     6390.0  2.054864E+00 
     6410.0  2.017815E+00 
     6430.0  2.032500E+00 
     6450.0  2.022246E+00 
     6470.0  2.014271E+00 
     6490.0  1.981357E+00 
     6510.0  2.040644E+00 
     6530.0  2.046636E+00 
     6550.0  1.989543E+00 
     6570.0  1.859113E+00 
     6590.0  2.003511E+00 
     6610.0  2.021571E+00 
     6630.0  2.010389E+00 
     6650.0  2.005494E+00 
     6670.0  1.968656E+00 
     6690.0  1.986801E+00 
     6710.0  1.927134E+00 
     6730.0  1.959963E+00 
     6750.0  1.933000E+00 
     6770.0  1.939667E+00 
     6790.0  1.924982E+00 
     6810.0  1.928485E+00 
     6830.0  1.946038E+00 
     6850.0  1.909496E+00 
     6870.0  1.929539E+00 
     6890.0  1.949836E+00 
     6910.0  1.947347E+00 
     6930.0  1.939245E+00 
     6950.0  1.938570E+00 
     6970.0  1.958444E+00 
     6990.0  1.950807E+00 
     7010.0  1.933928E+00 
     7030.0  1.962326E+00 
     7050.0  1.963635E+00 
     7070.0  1.914981E+00 
     7090.0  1.865484E+00 
     7110.0  1.828731E+00 
     7130.0  1.796830E+00 
     7150.0  1.787969E+00 
     7170.0  1.808223E+00 
     7190.0  1.772440E+00 
     7210.0  1.798602E+00 
     7230.0  1.834174E+00 
     7250.0  1.844428E+00 
     7270.0  1.858016E+00 
     7290.0  1.842529E+00 
     7310.0  1.882574E+00 
     7330.0  1.886836E+00 
     7350.0  1.900466E+00 
     7370.0  1.935278E+00 
     7390.0  1.909327E+00 
     7410.0  1.895149E+00 
     7430.0  1.933084E+00 
     7450.0  1.932240E+00 
     7470.0  1.950469E+00 
     7490.0  1.945616E+00 
     7510.0  1.956461E+00 
     7530.0  1.974986E+00 
     7550.0  1.984142E+00 
     7570.0  1.975745E+00 
     7590.0  1.945574E+00 
     7610.0  1.920973E+00 
     7630.0  1.886667E+00 
     7650.0  1.854640E+00 
     7670.0  1.782778E+00 
     7690.0  1.817338E+00 
     7710.0  1.787040E+00 
     7730.0  1.795817E+00 
     7750.0  1.782821E+00 
     7770.0  1.801050E+00 
     7790.0  1.807675E+00 
     7810.0  1.810038E+00 
     7830.0  1.796113E+00 
     7850.0  1.781470E+00 
     7870.0  1.803624E+00 
     7890.0  1.791598E+00 
     7910.0  1.759655E+00 
     7930.0  1.762440E+00 
     7950.0  1.754464E+00 
     7970.0  1.796577E+00 
     7990.0  1.795564E+00 
     8010.0  1.826537E+00 
     8030.0  1.832824E+00 
     8050.0  1.829280E+00 
     8070.0  1.846285E+00 
     8090.0  1.836622E+00 
     8110.0  1.851770E+00 
     8130.0  1.878692E+00 
     8150.0  1.890296E+00 
     8170.0  1.896541E+00 
     8190.0  1.843795E+00 
     8210.0  1.842909E+00 
     8230.0  1.847002E+00 
     8250.0  1.846876E+00 
     8270.0  1.857340E+00 
     8290.0  1.842867E+00 
     8310.0  1.807632E+00 
     8330.0  1.785859E+00 
     8350.0  1.792653E+00 
     8370.0  1.792695E+00 
     8390.0  1.739653E+00 
     8410.0  1.784551E+00 
     8430.0  1.723872E+00 
     8450.0  1.706740E+00 
     8470.0  1.699271E+00 
     8490.0  1.706022E+00 
     8510.0  1.644246E+00 
     8530.0  1.703997E+00 
     8550.0  1.566139E+00 
     8570.0  1.737037E+00 
     8590.0  1.722817E+00 
     8610.0  1.728344E+00 
     8630.0  1.749021E+00 
     8650.0  1.748894E+00 
     8670.0  1.592934E+00 
     8690.0  1.708976E+00 
     8710.0  1.754253E+00 
     8730.0  1.760709E+00 
     8750.0  1.743282E+00 
     8770.0  1.764465E+00 
     8790.0  1.773959E+00 
     8810.0  1.747924E+00 
     8830.0  1.753874E+00 
     8850.0  1.755519E+00 
     8870.0  1.710495E+00 
     8890.0  1.731762E+00 
     8910.0  1.738851E+00 
     8930.0  1.720411E+00 
     8950.0  1.716698E+00 
     8970.0  1.721762E+00 
     8990.0  1.722352E+00 
     9010.0  1.674248E+00 
     9030.0  1.719399E+00 
     9050.0  1.747502E+00 
     9070.0  1.741974E+00 
     9090.0  1.714630E+00 
     9110.0  1.731805E+00 
     9130.0  1.744421E+00 
     9150.0  1.738472E+00 
     9170.0  1.735138E+00 
     9190.0  1.742185E+00 
     9210.0  1.698553E+00 
     9230.0  1.663952E+00 
     9250.0  1.662897E+00 
     9270.0  1.667285E+00 
     9290.0  1.651841E+00 
     9310.0  1.658382E+00 
     9330.0  1.657454E+00 
     9350.0  1.650111E+00 
     9370.0  1.630490E+00 
     9390.0  1.649816E+00 
     9410.0  1.627030E+00 
     9430.0  1.651673E+00 
     9450.0  1.635258E+00 
     9470.0  1.656356E+00 
     9490.0  1.656272E+00 
     9510.0  1.638845E+00 
     9530.0  1.641545E+00 
     9550.0  1.613442E+00 
     9570.0  1.629350E+00 
     9590.0  1.644626E+00 
     9610.0  1.625384E+00 
     9630.0  1.631587E+00 
     9650.0  1.603568E+00 
     9670.0  1.604032E+00 
     9690.0  1.620109E+00 
     9710.0  1.601036E+00 
     9730.0  1.587027E+00 
     9750.0  1.582934E+00 
     9770.0  1.588293E+00 
     9790.0  1.568713E+00 
     9810.0  1.596648E+00 
     9830.0  1.585888E+00 
     9850.0  1.589685E+00 
     9870.0  1.580613E+00 
     9890.0  1.576646E+00 
     9910.0  1.559514E+00 
     9930.0  1.565760E+00 
     9950.0  1.567912E+00 
     9970.0  1.566730E+00 
     9990.0  1.562257E+00 
    10025.0  1.554409E+00 
    10075.0  1.535673E+00 
    10125.0  1.543015E+00 
    10175.0  1.525419E+00 
    10225.0  1.523267E+00 
    10275.0  1.522001E+00 
    10325.0  1.502000E+00 
    10375.0  1.491240E+00 
    10425.0  1.492675E+00 
    10475.0  1.472125E+00 
    10525.0  1.460014E+00 
    10575.0  1.435118E+00 
    10625.0  1.421109E+00 
    10675.0  1.406719E+00 
    10725.0  1.410306E+00 
    10775.0  1.397816E+00 
    10825.0  1.378701E+00 
    10875.0  1.372540E+00 
    10925.0  1.364860E+00 
    10975.0  1.350893E+00 
    11025.0  1.342200E+00 
    11075.0  1.324013E+00 
    11125.0  1.315532E+00 
    11175.0  1.304096E+00 
    11225.0  1.301860E+00 
    11275.0  1.283968E+00 
    11325.0  1.279411E+00 
    11375.0  1.266372E+00 
    11425.0  1.250802E+00 
    11475.0  1.260929E+00 
    11525.0  1.254388E+00 
    11575.0  1.240928E+00 
    11625.0  1.218605E+00 
    11675.0  1.216453E+00 
    11725.0  1.219281E+00 
    11775.0  1.193709E+00 
    11825.0  1.182907E+00 
    11875.0  1.164298E+00 
    11925.0  1.177168E+00 
    11975.0  1.141216E+00 
    12025.0  1.155521E+00 
    12075.0  1.145605E+00 
